#gd-step, abs-grad_likelihood, theta-error
0 10.8886384299 0.291113615701
1 7.61254877393 0.214988127962
2 5.54595090506 0.159528618911
3 4.12408667084 0.118287752203
4 3.10063019167 0.0872814502859
5 2.34543354213 0.0638271148646
6 1.78032336724 0.0460238811922
7 1.35405336057 0.0324833475865
8 1.03102516852 0.0221730959013
9 0.785579544997 0.0143173004513
10 0.598794432027 0.00832935613104
11 0.456522437393 0.00376413175711
12 0.348098971633 0.000283142040783
13 0.265445913905 0.00237131709827
14 0.202426961536 0.00439558671363
15 0.154373134056 0.00593931805419
16 0.117728473822 0.00711660279241
17 0.0897831927775 0.00801443472019
18 0.0684716432634 0.00869915115282
19 0.0522189001894 0.00922134015472
20 0.0398240501444 0.00961958065616
21 0.030371312422 0.00992329378038
22 0.0231623138106 0.0101549169185
23 0.0176644641613 0.0103315615601
24 0.0134715968847 0.0104662775289
25 0.0102739568788 0.0105690170977
26 0.00783531438545 0.0106473702416
27 0.00597551212101 0.0107071253628
28 0.00455715548138 0.0107526969176
29 0.00347546217443 0.0107874515394
30 0.00265052124419 0.0108139567518
31 0.00202138954301 0.0108341706472
32 0.00154158949072 0.0108495865421
33 0.00117567549987 0.0108613432971
34 0.000896615402807 0.0108703094512
35 0.000683793428567 0.0108771473854
36 0.000521487196896 0.0108823622574
37 0.000397706215361 0.0108863393196
38 0.000303306072892 0.0108893723803
39 0.000231312889524 0.0108916855092
40 0.00017640811591 0.0108934495904
41 0.000134535621514 0.0108947949466
42 0.000102602045071 0.010895820967
43 7.82482701095e-05 0.0108966034497
44 5.96751436215e-05 0.0108972002012
45 4.55105622323e-05 0.0108976553068
46 3.47081070745e-05 0.0108980023879
47 2.64697388389e-05 0.0108982670852
48 2.01868420166e-05 0.0108984689537
49 1.53952629892e-05 0.0108986229063
50 1.17410203225e-05 0.0108987403165
51 8.9541541693e-06 0.010898829858
52 6.82878273946e-06 0.0108988981459
53 5.20789264329e-06 0.0108989502248
54 3.97173944946e-06 0.0108989899422
55 3.02900143194e-06 0.0108990202322
56 2.31003312596e-06 0.0108990433325
57 1.76172020358e-06 0.0108990609497
58 1.34355566287e-06 0.0108990743853
59 1.02464727475e-06 0.0108990846318
60 7.81435469257e-07 0.0108990924461
61 5.95952775306e-07 0.0108990984056
62 4.54496531377e-07 0.0108991029506
63 3.46616546421e-07 0.0108991064168
64 2.643431365e-07 0.0108991090602
65 2.01598250769e-07 0.0108991110762
66 1.5374658385e-07 0.0108991126137
67 1.17253066902e-07 0.0108991137862
68 8.94216972309e-08 0.0108991146804
69 6.81964356843e-08 0.0108991153624
70 5.20092207861e-08 0.0108991158825
71 3.96642422e-08 0.0108991162791
72 3.02494665831e-08 0.0108991165816
73 2.30694190559e-08 0.0108991168123
74 1.75936295737e-08 0.0108991169882
75 1.34175735127e-08 0.0108991171224
76 1.02327555069e-08 0.0108991172247
77 7.80389127186e-09 0.0108991173028
78 5.95155236915e-09 0.0108991173623
79 4.53888555008e-09 0.0108991174077
80 3.46152628339e-09 0.0108991174423
81 2.63989437599e-09 0.0108991174687
82 2.01329254423e-09 0.0108991174888
83 1.53540744741e-09 0.0108991175042
84 1.17095533625e-09 0.0108991175159
85 8.93019809212e-10 0.0108991175248
86 6.8105337192e-10 0.0108991175316
87 5.19392962417e-10 0.0108991175368
88 3.96113351897e-10 0.0108991175408
89 3.02098008831e-10 0.0108991175438
90 2.30394318734e-10 0.0108991175461
91 1.75699545579e-10 0.0108991175479
92 1.33997746232e-10 0.0108991175492
93 1.0218633939e-10 0.0108991175502
94 7.7937677645e-11 0.010899117551
95 5.94354574446e-11 0.0108991175516
96 4.53325501582e-11 0.010899117552
97 3.45692665604e-11 0.0108991175524
98 2.6366274497e-11 0.0108991175527
99 2.0102087106e-11 0.0108991175529
100 1.53297907701e-11 0.010899117553
101 1.1695988178e-11 0.0108991175531
102 8.91618157084e-12 0.0108991175532
103 6.80018530375e-12 0.0108991175533
104 5.18328313603e-12 0.0108991175533
105 3.96025967575e-12 0.0108991175534
106 3.02691383069e-12 0.0108991175534
107 2.30387087186e-12 0.0108991175534
108 1.76040337863e-12 0.0108991175534
109 1.33246480516e-12 0.0108991175535
110 1.03093888981e-12 0.0108991175535
111 7.78454634087e-13 0.0108991175535
112 5.96330096414e-13 0.0108991175535
113 4.53288961921e-13 0.0108991175535
114 3.42517125773e-13 0.0108991175535
115 2.71546340969e-13 0.0108991175535
116 2.07416306353e-13 0.0108991175535
117 1.56207491386e-13 0.0108991175535
118 1.19833032386e-13 0.0108991175535
119 9.45235001382e-14 0.0108991175535
120 7.29372118258e-14 0.0108991175535
121 6.11120043459e-14 0.0108991175535
122 4.91002793979e-14 0.0108991175535
123 3.20437010259e-14 0.0108991175535
124 2.88125079351e-14 0.0108991175535
125 2.28208563158e-14 0.0108991175535
126 2.04298800099e-14 0.0108991175535
127 1.54312118639e-14 0.0108991175535
128 1.06084030449e-14 0.0108991175535
129 1.06084030449e-14 0.0108991175535
130 1.06084030449e-14 0.0108991175535
131 1.06084030449e-14 0.0108991175535
132 1.06084030449e-14 0.0108991175535
133 1.06084030449e-14 0.0108991175535
134 1.06084030449e-14 0.0108991175535
135 1.06084030449e-14 0.0108991175535
136 1.06084030449e-14 0.0108991175535
137 1.06084030449e-14 0.0108991175535
138 1.06084030449e-14 0.0108991175535
139 1.06084030449e-14 0.0108991175535
140 1.06084030449e-14 0.0108991175535
141 1.06084030449e-14 0.0108991175535
142 1.06084030449e-14 0.0108991175535
143 1.06084030449e-14 0.0108991175535
144 1.06084030449e-14 0.0108991175535
145 1.06084030449e-14 0.0108991175535
146 1.06084030449e-14 0.0108991175535
147 1.06084030449e-14 0.0108991175535
148 1.06084030449e-14 0.0108991175535
149 1.06084030449e-14 0.0108991175535
150 1.06084030449e-14 0.0108991175535
151 1.06084030449e-14 0.0108991175535
152 1.06084030449e-14 0.0108991175535
153 1.06084030449e-14 0.0108991175535
154 1.06084030449e-14 0.0108991175535
155 1.06084030449e-14 0.0108991175535
156 1.06084030449e-14 0.0108991175535
157 1.06084030449e-14 0.0108991175535
158 1.06084030449e-14 0.0108991175535
159 1.06084030449e-14 0.0108991175535
160 1.06084030449e-14 0.0108991175535
161 1.06084030449e-14 0.0108991175535
162 1.06084030449e-14 0.0108991175535
163 1.06084030449e-14 0.0108991175535
164 1.06084030449e-14 0.0108991175535
165 1.06084030449e-14 0.0108991175535
166 1.06084030449e-14 0.0108991175535
167 1.06084030449e-14 0.0108991175535
168 1.06084030449e-14 0.0108991175535
169 1.06084030449e-14 0.0108991175535
170 1.06084030449e-14 0.0108991175535
171 1.06084030449e-14 0.0108991175535
172 1.06084030449e-14 0.0108991175535
173 1.06084030449e-14 0.0108991175535
174 1.06084030449e-14 0.0108991175535
175 1.06084030449e-14 0.0108991175535
176 1.06084030449e-14 0.0108991175535
177 1.06084030449e-14 0.0108991175535
178 1.06084030449e-14 0.0108991175535
179 1.06084030449e-14 0.0108991175535
180 1.06084030449e-14 0.0108991175535
181 1.06084030449e-14 0.0108991175535
182 1.06084030449e-14 0.0108991175535
183 1.06084030449e-14 0.0108991175535
184 1.06084030449e-14 0.0108991175535
185 1.06084030449e-14 0.0108991175535
186 1.06084030449e-14 0.0108991175535
187 1.06084030449e-14 0.0108991175535
188 1.06084030449e-14 0.0108991175535
189 1.06084030449e-14 0.0108991175535
190 1.06084030449e-14 0.0108991175535
191 1.06084030449e-14 0.0108991175535
192 1.06084030449e-14 0.0108991175535
193 1.06084030449e-14 0.0108991175535
194 1.06084030449e-14 0.0108991175535
195 1.06084030449e-14 0.0108991175535
196 1.06084030449e-14 0.0108991175535
197 1.06084030449e-14 0.0108991175535
198 1.06084030449e-14 0.0108991175535
199 1.06084030449e-14 0.0108991175535
#theta_true= 1.1 theta_estimated= 1.08910088245
